*
* Overschrijdingskansen potentiele windsnelheid Vlissingen. Met statistische onzekerheid.
* WTI2017: 12-uursmaxima, gegeven windrichting
*
* Door: K.A. Wojciechowska van HKV lijn in water
* Project: PR3280.10
*
* u (m/s)   30              60              90              120             150             180             210             240             270             300             330             360
  0.00      1.000e+000      1.000e+000      1.000e+000      1.000e+000      1.000e+000      1.000e+000      1.000e+000      1.000e+000      1.000e+000      1.000e+000      1.000e+000      1.000e+000 
  2.00      9.827e-001      9.884e-001      9.951e-001      9.894e-001      9.918e-001      9.968e-001      9.969e-001      9.975e-001      9.977e-001      9.960e-001      9.978e-001      9.826e-001 
  2.50      9.585e-001      9.793e-001      9.797e-001      9.690e-001      9.791e-001      9.901e-001      9.935e-001      9.938e-001      9.936e-001      9.852e-001      9.806e-001      9.565e-001 
  3.00      8.970e-001      9.414e-001      9.516e-001      9.435e-001      9.540e-001      9.792e-001      9.850e-001      9.833e-001      9.812e-001      9.532e-001      9.387e-001      9.121e-001 
  3.50      8.340e-001      8.983e-001      9.073e-001      8.927e-001      9.131e-001      9.585e-001      9.747e-001      9.734e-001      9.668e-001      9.272e-001      8.940e-001      8.604e-001 
  4.00      7.316e-001      8.162e-001      8.307e-001      8.075e-001      8.506e-001      9.222e-001      9.555e-001      9.498e-001      9.398e-001      8.892e-001      8.262e-001      7.742e-001 
  4.50      6.557e-001      7.453e-001      7.665e-001      7.205e-001      7.761e-001      8.850e-001      9.294e-001      9.252e-001      9.133e-001      8.479e-001      7.728e-001      7.040e-001 
  5.00      5.716e-001      6.563e-001      6.893e-001      6.309e-001      7.036e-001      8.443e-001      8.937e-001      8.878e-001      8.688e-001      7.879e-001      6.920e-001      6.106e-001 
  5.50      4.993e-001      5.714e-001      6.070e-001      5.314e-001      6.128e-001      7.925e-001      8.549e-001      8.533e-001      8.224e-001      7.354e-001      6.220e-001      5.410e-001 
  6.00      4.178e-001      4.868e-001      5.289e-001      4.570e-001      5.349e-001      7.435e-001      8.168e-001      8.179e-001      7.836e-001      6.736e-001      5.466e-001      4.650e-001 
  6.50      3.563e-001      4.233e-001      4.424e-001      3.783e-001      4.426e-001      6.775e-001      7.648e-001      7.716e-001      7.411e-001      6.140e-001      4.901e-001      4.024e-001 
  7.00      2.885e-001      3.454e-001      3.634e-001      3.040e-001      3.634e-001      6.096e-001      7.074e-001      7.257e-001      6.927e-001      5.437e-001      4.278e-001      3.401e-001 
  7.50      2.283e-001      2.702e-001      2.874e-001      2.319e-001      2.918e-001      5.394e-001      6.494e-001      6.785e-001      6.435e-001      4.822e-001      3.643e-001      2.821e-001 
  8.00      1.797e-001      2.138e-001      2.254e-001      1.715e-001      2.359e-001      4.778e-001      5.979e-001      6.349e-001      5.947e-001      4.245e-001      2.990e-001      2.259e-001 
  8.50      1.436e-001      1.652e-001      1.722e-001      1.217e-001      1.875e-001      4.138e-001      5.400e-001      5.866e-001      5.436e-001      3.694e-001      2.420e-001      1.801e-001 
  9.00      1.095e-001      1.254e-001      1.317e-001      8.011e-002      1.441e-001      3.535e-001      4.814e-001      5.384e-001      4.944e-001      3.129e-001      1.883e-001      1.408e-001 
  9.50      7.792e-002      9.349e-002      1.004e-001      5.439e-002      1.067e-001      2.967e-001      4.238e-001      4.884e-001      4.453e-001      2.635e-001      1.482e-001      1.095e-001 
 10.00      5.373e-002      6.856e-002      7.227e-002      3.937e-002      8.112e-002      2.419e-001      3.657e-001      4.403e-001      3.985e-001      2.216e-001      1.207e-001      8.296e-002 
 10.50      3.688e-002      4.846e-002      4.980e-002      2.887e-002      6.364e-002      1.960e-001      3.152e-001      3.999e-001      3.571e-001      1.857e-001      9.886e-002      6.105e-002 
 11.00      2.531e-002      3.306e-002      3.267e-002      2.119e-002      4.826e-002      1.588e-001      2.727e-001      3.630e-001      3.192e-001      1.518e-001      7.872e-002      4.462e-002 
 11.50      1.738e-002      2.234e-002      2.036e-002      1.556e-002      3.515e-002      1.291e-001      2.350e-001      3.257e-001      2.808e-001      1.213e-001      6.097e-002      3.260e-002 
 12.00      1.192e-002      1.509e-002      1.247e-002      1.142e-002      2.530e-002      1.030e-001      1.990e-001      2.881e-001      2.413e-001      9.620e-002      4.686e-002      2.383e-002 
 12.50      8.137e-003      1.019e-002      7.625e-003      8.383e-003      1.819e-002      7.963e-002      1.649e-001      2.519e-001      2.048e-001      7.586e-002      3.599e-002      1.742e-002 
 13.00      5.438e-003      6.885e-003      4.685e-003      6.137e-003      1.308e-002      6.023e-002      1.335e-001      2.171e-001      1.748e-001      5.950e-002      2.764e-002      1.273e-002 
 13.50      3.488e-003      4.651e-003      2.930e-003      4.451e-003      9.411e-003      4.531e-002      1.059e-001      1.840e-001      1.499e-001      4.669e-002      2.123e-002      9.305e-003 
 14.00      2.146e-003      3.139e-003      1.900e-003      3.174e-003      6.768e-003      3.444e-002      8.332e-002      1.529e-001      1.276e-001      3.674e-002      1.631e-002      6.777e-003 
 14.50      1.292e-003      2.115e-003      1.278e-003      2.228e-003      4.863e-003      2.614e-002      6.546e-002      1.244e-001      1.080e-001      2.895e-002      1.253e-002      4.885e-003 
 15.00      7.741e-004      1.422e-003      8.762e-004      1.552e-003      3.483e-003      1.942e-002      5.138e-002      9.999e-002      9.139e-002      2.283e-002      9.623e-003      3.459e-003 
 15.50      4.636e-004      9.550e-004      6.037e-004      1.079e-003      2.480e-003      1.419e-002      4.017e-002      7.995e-002      7.641e-002      1.800e-002      7.366e-003      2.405e-003 
 16.00      2.777e-004      6.414e-004      4.164e-004      7.504e-004      1.755e-003      1.030e-002      3.087e-002      6.357e-002      6.264e-002      1.419e-002      5.593e-003      1.656e-003 
 16.50      1.665e-004      4.308e-004      2.872e-004      5.219e-004      1.238e-003      7.478e-003      2.288e-002      5.021e-002      5.056e-002      1.119e-002      4.192e-003      1.137e-003 
 17.00      9.982e-005      2.895e-004      1.982e-004      3.630e-004      8.723e-004      5.428e-003      1.623e-002      3.931e-002      4.034e-002      8.827e-003      3.103e-003      7.801e-004 
 17.50      5.988e-005      1.946e-004      1.368e-004      2.526e-004      6.147e-004      3.939e-003      1.115e-002      3.050e-002      3.169e-002      6.960e-003      2.278e-003      5.354e-004 
 18.00      3.594e-005      1.308e-004      9.442e-005      1.758e-004      4.332e-004      2.858e-003      7.548e-003      2.356e-002      2.447e-002      5.482e-003      1.668e-003      3.675e-004 
 18.50      2.158e-005      8.796e-005      6.519e-005      1.223e-004      3.054e-004      2.070e-003      5.093e-003      1.825e-002      1.865e-002      4.302e-003      1.220e-003      2.524e-004 
 19.00      1.296e-005      5.916e-005      4.502e-005      8.517e-005      2.153e-004      1.496e-003      3.439e-003      1.422e-002      1.413e-002      3.352e-003      8.929e-004      1.733e-004 
 19.50      7.788e-006      3.981e-005      3.110e-005      5.931e-005      1.518e-004      1.079e-003      2.330e-003      1.111e-002      1.069e-002      2.584e-003      6.534e-004      1.191e-004 
 20.00      4.682e-006      2.679e-005      2.149e-005      4.131e-005      1.071e-004      7.764e-004      1.592e-003      8.703e-003      8.091e-003      1.969e-003      4.783e-004      8.182e-005 
 20.50      2.816e-006      1.803e-005      1.485e-005      2.878e-005      7.556e-005      5.582e-004      1.103e-003      6.817e-003      6.124e-003      1.488e-003      3.501e-004      5.623e-005 
 21.00      1.694e-006      1.214e-005      1.027e-005      2.006e-005      5.332e-005      4.013e-004      7.756e-004      5.340e-003      4.638e-003      1.120e-003      2.564e-004      3.866e-005 
 21.50      1.020e-006      8.179e-006      7.099e-006      1.398e-005      3.763e-005      2.885e-004      5.529e-004      4.182e-003      3.519e-003      8.410e-004      1.877e-004      2.658e-005 
 22.00      6.140e-007      5.510e-006      4.910e-006      9.744e-006      2.657e-005      2.074e-004      3.974e-004      3.274e-003      2.679e-003      6.316e-004      1.375e-004      1.828e-005 
 22.50      3.699e-007      3.713e-006      3.396e-006      6.795e-006      1.876e-005      1.492e-004      2.866e-004      2.558e-003      2.049e-003      4.744e-004      1.007e-004      1.258e-005 
 23.00      2.229e-007      2.503e-006      2.350e-006      4.739e-006      1.325e-005      1.073e-004      2.070e-004      1.993e-003      1.575e-003      3.563e-004      7.380e-005      8.654e-006 
 23.50      1.344e-007      1.687e-006      1.626e-006      3.306e-006      9.358e-006      7.719e-005      1.496e-004      1.547e-003      1.216e-003      2.677e-004      5.408e-005      5.956e-006 
 24.00      8.106e-008      1.138e-006      1.126e-006      2.306e-006      6.611e-006      5.554e-005      1.081e-004      1.195e-003      9.412e-004      2.011e-004      3.964e-005      4.100e-006 
 24.50      4.891e-008      7.676e-007      7.794e-007      1.610e-006      4.672e-006      3.997e-005      7.811e-005      9.193e-004      7.297e-004      1.511e-004      2.906e-005      2.823e-006 
 25.00      2.952e-008      5.179e-007      5.397e-007      1.124e-006      3.302e-006      2.877e-005      5.646e-005      7.054e-004      5.661e-004      1.136e-004      2.130e-005      1.945e-006 
 25.50      1.783e-008      3.495e-007      3.738e-007      7.844e-007      2.334e-006      2.072e-005      4.082e-005      5.405e-004      4.392e-004      8.539e-005      1.562e-005      1.340e-006 
 26.00      1.077e-008      2.359e-007      2.590e-007      5.478e-007      1.651e-006      1.492e-005      2.952e-005      4.139e-004      3.409e-004      6.419e-005      1.146e-005      9.230e-007 
 26.50      6.509e-009      1.593e-007      1.795e-007      3.826e-007      1.167e-006      1.074e-005      2.135e-005      3.170e-004      2.646e-004      4.826e-005      8.403e-006      6.361e-007 
 27.00      3.935e-009      1.076e-007      1.244e-007      2.673e-007      8.257e-007      7.738e-006      1.545e-005      2.428e-004      2.054e-004      3.629e-005      6.164e-006      4.385e-007 
 27.50      2.380e-009      7.269e-008      8.625e-008      1.868e-007      5.841e-007      5.575e-006      1.118e-005      1.859e-004      1.594e-004      2.730e-005      4.523e-006      3.024e-007 
 28.00      1.440e-009      4.912e-008      5.981e-008      1.305e-007      4.133e-007      4.017e-006      8.087e-006      1.424e-004      1.238e-004      2.053e-005      3.319e-006      2.085e-007 
 28.50      8.716e-010      3.320e-008      4.148e-008      9.125e-008      2.926e-007      2.895e-006      5.853e-006      1.091e-004      9.612e-005      1.545e-005      2.436e-006      1.438e-007 
 29.00      5.277e-010      2.244e-008      2.878e-008      6.380e-008      2.071e-007      2.087e-006      4.237e-006      8.360e-005      7.464e-005      1.162e-005      1.788e-006      9.925e-008 
 29.50      3.197e-010      1.518e-008      1.997e-008      4.462e-008      1.466e-007      1.505e-006      3.068e-006      6.406e-005      5.797e-005      8.744e-006      1.313e-006      6.849e-008 
 30.00      1.937e-010      1.027e-008      1.386e-008      3.121e-008      1.038e-007      1.085e-006      2.221e-006      4.909e-005      4.503e-005      6.581e-006      9.642e-007      4.728e-008 
 30.50      1.174e-010      6.945e-009      9.619e-009      2.184e-008      7.355e-008      7.825e-007      1.609e-006      3.763e-005      3.498e-005      4.953e-006      7.081e-007      3.264e-008 
 31.00      7.121e-011      4.700e-009      6.679e-009      1.528e-008      5.211e-008      5.644e-007      1.165e-006      2.884e-005      2.718e-005      3.729e-006      5.201e-007      2.254e-008 
 31.50      4.320e-011      3.181e-009      4.638e-009      1.070e-008      3.692e-008      4.072e-007      8.443e-007      2.211e-005      2.112e-005      2.807e-006      3.821e-007      1.557e-008 
 32.00      2.622e-011      2.154e-009      3.222e-009      7.487e-009      2.617e-008      2.938e-007      6.118e-007      1.695e-005      1.641e-005      2.114e-006      2.808e-007      1.076e-008 
 32.50      1.592e-011      1.459e-009      2.238e-009      5.242e-009      1.855e-008      2.121e-007      4.434e-007      1.300e-005      1.275e-005      1.592e-006      2.063e-007      7.433e-009 
 33.00      9.667e-012      9.880e-010      1.555e-009      3.671e-009      1.315e-008      1.531e-007      3.214e-007      9.971e-006      9.911e-006      1.199e-006      1.517e-007      5.138e-009 
 33.50      5.873e-012      6.694e-010      1.081e-009      2.572e-009      9.325e-009      1.105e-007      2.330e-007      7.648e-006      7.704e-006      9.032e-007      1.115e-007      3.552e-009 
 34.00      3.570e-012      4.536e-010      7.515e-010      1.802e-009      6.614e-009      7.979e-008      1.690e-007      5.866e-006      5.989e-006      6.805e-007      8.196e-008      2.456e-009 
 34.50      2.170e-012      3.075e-010      5.226e-010      1.263e-009      4.692e-009      5.763e-008      1.225e-007      4.501e-006      4.656e-006      5.127e-007      6.027e-008      1.699e-009 
 35.00      1.320e-012      2.085e-010      3.634e-010      8.850e-010      3.329e-009      4.162e-008      8.888e-008      3.453e-006      3.621e-006      3.864e-007      4.433e-008      1.175e-009 
 35.50      8.031e-013      1.414e-010      2.528e-010      6.204e-010      2.362e-009      3.007e-008      6.448e-008      2.650e-006      2.815e-006      2.912e-007      3.260e-008      8.130e-010 
 36.00      4.888e-013      9.590e-011      1.759e-010      4.350e-010      1.677e-009      2.173e-008      4.678e-008      2.033e-006      2.190e-006      2.195e-007      2.399e-008      5.626e-010 
 36.50      2.976e-013      6.506e-011      1.224e-010      3.051e-010      1.190e-009      1.570e-008      3.395e-008      1.561e-006      1.703e-006      1.655e-007      1.765e-008      3.894e-010 
 37.00      1.813e-013      4.415e-011      8.520e-011      2.140e-010      8.451e-010      1.135e-008      2.464e-008      1.198e-006      1.325e-006      1.248e-007      1.299e-008      2.696e-010 
 37.50      1.104e-013      2.997e-011      5.932e-011      1.501e-010      6.002e-010      8.205e-009      1.789e-008      9.197e-007      1.031e-006      9.408e-008      9.558e-009      1.867e-010 
 38.00      6.730e-014      2.035e-011      4.130e-011      1.053e-010      4.263e-010      5.932e-009      1.299e-008      7.062e-007      8.019e-007      7.095e-008      7.036e-009      1.293e-010 
 38.50      4.102e-014      1.382e-011      2.877e-011      7.394e-011      3.028e-010      4.290e-009      9.431e-009      5.422e-007      6.240e-007      5.351e-008      5.180e-009      8.958e-011 
 39.00      2.501e-014      9.385e-012      2.004e-011      5.190e-011      2.152e-010      3.103e-009      6.850e-009      4.164e-007      4.856e-007      4.037e-008      3.814e-009      6.207e-011 
 39.50      1.525e-014      6.376e-012      1.396e-011      3.644e-011      1.529e-010      2.245e-009      4.976e-009      3.198e-007      3.779e-007      3.046e-008      2.809e-009      4.302e-011 
 40.00      9.292e-015      4.333e-012      9.730e-012      2.559e-011      1.087e-010      1.624e-009      3.615e-009      2.457e-007      2.942e-007      2.298e-008      2.069e-009      2.982e-011 
 40.50      5.658e-015      2.945e-012      6.782e-012      1.798e-011      7.728e-011      1.175e-009      2.627e-009      1.887e-007      2.290e-007      1.734e-008      1.524e-009      2.068e-011 
 41.00      3.441e-015      2.002e-012      4.728e-012      1.263e-011      5.495e-011      8.505e-010      1.909e-009      1.450e-007      1.783e-007      1.309e-008      1.123e-009      1.434e-011 
 41.50      2.087e-015      1.361e-012      3.297e-012      8.874e-012      3.908e-011      6.157e-010      1.388e-009      1.114e-007      1.388e-007      9.880e-009      8.273e-010      9.945e-012 
 42.00      1.261e-015      9.260e-013      2.299e-012      6.236e-012      2.780e-011      4.457e-010      1.009e-009      8.562e-008      1.081e-007      7.458e-009      6.097e-010      6.900e-012 
